* Piecewise linear input for RC lowpass filter
* Format: time voltage
* 1 kHz sine wave for 10ms

0.0000 0.0000
0.0001 0.3090
0.0002 0.5878
0.0003 0.8090
0.0004 0.9511
0.0005 1.0000
0.0006 0.9511
0.0007 0.8090
0.0008 0.5878
0.0009 0.3090
0.0010 0.0000
0.0011 -0.3090
0.0012 -0.5878
0.0013 -0.8090
0.0014 -0.9511
0.0015 -1.0000
0.0016 -0.9511
0.0017 -0.8090
0.0018 -0.5878
0.0019 -0.3090
0.0020 0.0000
0.0021 0.3090
0.0022 0.5878
0.0023 0.8090
0.0024 0.9511
0.0025 1.0000
0.0026 0.9511
0.0027 0.8090
0.0028 0.5878
0.0029 0.3090
0.0030 0.0000
0.0031 -0.3090
0.0032 -0.5878
0.0033 -0.8090
0.0034 -0.9511
0.0035 -1.0000
0.0036 -0.9511
0.0037 -0.8090
0.0038 -0.5878
0.0039 -0.3090
0.0040 0.0000
0.0041 0.3090
0.0042 0.5878
0.0043 0.8090
0.0044 0.9511
0.0045 1.0000
0.0046 0.9511
0.0047 0.8090
0.0048 0.5878
0.0049 0.3090
0.0050 0.0000
0.0051 -0.3090
0.0052 -0.5878
0.0053 -0.8090
0.0054 -0.9511
0.0055 -1.0000
0.0056 -0.9511
0.0057 -0.8090
0.0058 -0.5878
0.0059 -0.3090
0.0060 0.0000
0.0061 0.3090
0.0062 0.5878
0.0063 0.8090
0.0064 0.9511
0.0065 1.0000
0.0066 0.9511
0.0067 0.8090
0.0068 0.5878
0.0069 0.3090
0.0070 0.0000
0.0071 -0.3090
0.0072 -0.5878
0.0073 -0.8090
0.0074 -0.9511
0.0075 -1.0000
0.0076 -0.9511
0.0077 -0.8090
0.0078 -0.5878
0.0079 -0.3090
0.0080 0.0000
0.0081 0.3090
0.0082 0.5878
0.0083 0.8090
0.0084 0.9511
0.0085 1.0000
0.0086 0.9511
0.0087 0.8090
0.0088 0.5878
0.0089 0.3090
0.0090 0.0000
0.0091 -0.3090
0.0092 -0.5878
0.0093 -0.8090
0.0094 -0.9511
0.0095 -1.0000
0.0096 -0.9511
0.0097 -0.8090
0.0098 -0.5878
0.0099 -0.3090
0.0100 0.0000
